Point ID,Density,Eddy_Viscosity,Energy,Heat_Flux,Laminar_Viscosity,Mach,Momentum_0,Momentum_1,Momentum_2,Momentum_Magnitude,Nu_Tilde,Points_0,Points_1,Points_2,Points_Magnitude,Pressure,Pressure_Coefficient,Skin_Friction_Coefficient_0,Skin_Friction_Coefficient_1,Skin_Friction_Coefficient_2,Skin_Friction_Coefficient_Magnitude,Temperature,Velocity_0,Velocity_1,Velocity_2,Velocity_Magnitude,Y_Plus
0,0.9992,0,79.771,-0,8.57161e-08,0,0,0,0,0,0,1,5.3522e-08,0,1,31.9084,0.324724,5.74207e-15,2.906e-05,0,2.906e-05,1.00592,0,0,0,0,0.0367053
1,0.999142,0,79.7488,-0,8.57015e-08,0,0,0,0,0,0,0.999001,-0.000141592,0,0.999001,31.8995,0.307012,0.00466179,0.000660555,0,0.00470836,1.0057,0,0,0,0,0.468177
2,0.999092,0,79.7284,-0,8.56878e-08,0,0,0,0,0,0,0.997966,-0.000288179,0,0.997966,31.8914,0.290643,0.00443973,0.000628275,0,0.00448396,1.00549,0,0,0,0,0.456689
3,0.999074,0,79.7073,-0,8.56714e-08,0,0,0,0,0,0,0.996893,-0.000439859,0,0.996893,31.8829,0.273764,0.0039915,0.000564081,0,0.00403116,1.00524,0,0,0,0,0.432861
4,0.998967,0,79.6889,-0,8.56631e-08,0,0,0,0,0,0,0.995782,-0.000596789,0,0.995782,31.8756,0.259044,0.00379206,0.000535147,0,0.00382963,1.00512,0,0,0,0,0.4217
5,0.998838,0,79.6743,-0,8.56595e-08,0,0,0,0,0,0,0.994631,-0.000759131,0,0.994631,31.8697,0.247373,0.00377684,0.00053223,0,0.00381416,1.00506,0,0,0,0,0.420626
6,0.998714,0,79.6629,-0,8.56583e-08,0,0,0,0,0,0,0.993438,-0.000927049,0,0.993439,31.8652,0.238241,0.00383223,0.000539229,0,0.00386998,1.00505,0,0,0,0,0.423467
7,0.998604,0,79.6535,-0,8.56578e-08,0,0,0,0,0,0,0.992203,-0.00110071,0,0.992204,31.8614,0.23075,0.00389998,0.000547914,0,0.00393828,1.00504,0,0,0,0,0.426968
8,0.998511,0,79.6454,-0,8.56573e-08,0,0,0,0,0,0,0.990924,-0.00128029,0,0.990925,31.8582,0.224278,0.00396171,0.000555697,0,0.00400049,1.00503,0,0,0,0,0.430116
9,0.99843,0,79.6382,-0,8.56566e-08,0,0,0,0,0,0,0.989599,-0.00146596,0,0.9896,31.8553,0.218499,0.00401379,0.000562071,0,0.00405295,1.00502,0,0,0,0,0.432725
10,0.998359,0,79.6317,-0,8.56558e-08,0,0,0,0,0,0,0.988228,-0.00165789,0,0.988229,31.8527,0.21326,0.00405697,0.000567146,0,0.00409642,1.00501,0,0,0,0,0.434846
11,0.998296,0,79.6257,-0,8.5655e-08,0,0,0,0,0,0,0.986807,-0.00185628,0,0.986809,31.8503,0.208487,0.00409332,0.000571216,0,0.00413298,1.005,0,0,0,0,0.436597
12,0.99824,0,79.6202,-0,8.56543e-08,0,0,0,0,0,0,0.985337,-0.00206129,0,0.985339,31.8481,0.204129,0.00412499,0.000574583,0,0.00416481,1.00498,0,0,0,0,0.438097
13,0.998188,0,79.6153,-0,8.56535e-08,0,0,0,0,0,0,0.983815,-0.00227313,0,0.983817,31.8461,0.20014,0.00415357,0.000577471,0,0.00419352,1.00497,0,0,0,0,0.439432
14,0.998141,0,79.6107,-0,8.56529e-08,0,0,0,0,0,0,0.982239,-0.00249197,0,0.982242,31.8443,0.196477,0.00417998,0.000580007,0,0.00422003,1.00496,0,0,0,0,0.440653
15,0.998098,0,79.6065,-0,8.56522e-08,0,0,0,0,0,0,0.980609,-0.00271801,0,0.980612,31.8426,0.193101,0.00420464,0.000582251,0,0.00424477,1.00495,0,0,0,0,0.441784
16,0.998059,0,79.6026,-0,8.56516e-08,0,0,0,0,0,0,0.978921,-0.00295145,0,0.978926,31.841,0.189981,0.00422777,0.000584232,0,0.00426794,1.00494,0,0,0,0,0.442835
17,0.998023,0,79.5989,-0,8.56509e-08,0,0,0,0,0,0,0.977175,-0.00319247,0,0.97718,31.8396,0.18709,0.00424949,0.000585968,0,0.0042897,1.00493,0,0,0,0,0.443815
18,0.99799,0,79.5956,-0,8.56503e-08,0,0,0,0,0,0,0.975369,-0.00344128,0,0.975375,31.8382,0.18441,0.00426994,0.000587477,0,0.00431017,1.00492,0,0,0,0,0.44473
19,0.997959,0,79.5925,-0,8.56498e-08,0,0,0,0,0,0,0.9735,-0.00369808,0,0.973507,31.837,0.181922,0.00428927,0.00058878,0,0.00432949,1.00492,0,0,0,0,0.445589
20,0.997932,0,79.5896,-0,8.56492e-08,0,0,0,0,0,0,0.971568,-0.00396307,0,0.971576,31.8358,0.179611,0.00430762,0.000589894,0,0.00434782,1.00491,0,0,0,0,0.4464
21,0.997906,0,79.5869,-0,8.56486e-08,0,0,0,0,0,0,0.969569,-0.00423645,0,0.969578,31.8348,0.177462,0.0043251,0.000590836,0,0.00436527,1.0049,0,0,0,0,0.447168
22,0.997883,0,79.5844,-0,8.56481e-08,0,0,0,0,0,0,0.967502,-0.00451843,0,0.967513,31.8338,0.175461,0.00434181,0.000591618,0,0.00438193,1.00489,0,0,0,0,0.447899
23,0.997862,0,79.5821,-0,8.56476e-08,0,0,0,0,0,0,0.965366,-0.0048092,0,0.965378,31.8328,0.173592,0.00435784,0.000592251,0,0.0043979,1.00488,0,0,0,0,0.448597
24,0.997842,0,79.5799,-0,8.56471e-08,0,0,0,0,0,0,0.963157,-0.00510898,0,0.96317,31.832,0.171842,0.00437324,0.000592743,0,0.00441323,1.00488,0,0,0,0,0.449265
25,0.997823,0,79.5778,-0,8.56466e-08,0,0,0,0,0,0,0.960874,-0.00541796,0,0.960889,31.8311,0.170194,0.00438808,0.0005931,0,0.00442798,1.00487,0,0,0,0,0.449907
26,0.997806,0,79.5759,-0,8.56461e-08,0,0,0,0,0,0,0.958515,-0.00573636,0,0.958532,31.8303,0.168632,0.0044024,0.00059333,0,0.0044422,1.00486,0,0,0,0,0.450524
27,0.99779,0,79.574,-0,8.56456e-08,0,0,0,0,0,0,0.956078,-0.00606436,0,0.956097,31.8296,0.16714,0.00441625,0.000593436,0,0.00445594,1.00485,0,0,0,0,0.451119
28,0.997774,0,79.5722,-0,8.56451e-08,0,0,0,0,0,0,0.95356,-0.00640218,0,0.953582,31.8289,0.165703,0.00442967,0.000593424,0,0.00446924,1.00485,0,0,0,0,0.451695
29,0.997759,0,79.5705,-0,8.56447e-08,0,0,0,0,0,0,0.95096,-0.00675,0,0.950984,31.8282,0.164306,0.00444269,0.000593297,0,0.00448213,1.00484,0,0,0,0,0.452252
30,0.997744,0,79.5687,-0,8.56443e-08,0,0,0,0,0,0,0.948275,-0.00710804,0,0.948301,31.8275,0.162935,0.00445534,0.000593058,0,0.00449463,1.00483,0,0,0,0,0.452792
31,0.99773,0,79.5671,-0,8.56438e-08,0,0,0,0,0,0,0.945502,-0.00747646,0,0.945532,31.8268,0.161579,0.00446764,0.000592711,0,0.00450679,1.00483,0,0,0,0,0.453316
32,0.997715,0,79.5654,-0,8.56434e-08,0,0,0,0,0,0,0.942641,-0.00785548,0,0.942673,31.8261,0.16023,0.00447963,0.000592258,0,0.00451861,1.00482,0,0,0,0,0.453827
33,0.9977,0,79.5637,-0,8.5643e-08,0,0,0,0,0,0,0.939687,-0.00824527,0,0.939724,31.8255,0.158882,0.00449132,0.0005917,0,0.00453013,1.00481,0,0,0,0,0.454323
34,0.997684,0,79.562,-0,8.56426e-08,0,0,0,0,0,0,0.93664,-0.00864601,0,0.93668,31.8248,0.157531,0.00450274,0.00059104,0,0.00454136,1.00481,0,0,0,0,0.454808
35,0.997669,0,79.5603,-0,8.56422e-08,0,0,0,0,0,0,0.933497,-0.00905787,0,0.933541,31.8241,0.156175,0.00451398,0.000590291,0,0.00455241,1.0048,0,0,0,0,0.455285
36,0.997653,0,79.5586,-0,8.56419e-08,0,0,0,0,0,0,0.930255,-0.00948102,0,0.930303,31.8234,0.154796,0.00452502,0.000589446,0,0.00456325,1.0048,0,0,0,0,0.455753
37,0.997636,0,79.5568,-0,8.56415e-08,0,0,0,0,0,0,0.926912,-0.00991563,0,0.926965,31.8227,0.153386,0.00453582,0.000588504,0,0.00457384,1.00479,0,0,0,0,0.456211
38,0.997619,0,79.5551,-0,8.56412e-08,0,0,0,0,0,0,0.923466,-0.0103618,0,0.923524,31.822,0.151998,0.00454628,0.000587447,0,0.00458408,1.00479,0,0,0,0,0.456653
39,0.997603,0,79.5534,-0,8.56408e-08,0,0,0,0,0,0,0.919915,-0.0108198,0,0.919978,31.8213,0.150622,0.00455667,0.000586311,0,0.00459424,1.00478,0,0,0,0,0.457092
40,0.997586,0,79.5517,-0,8.56405e-08,0,0,0,0,0,0,0.916256,-0.0112896,0,0.916325,31.8207,0.149255,0.00456682,0.000585072,0,0.00460414,1.00478,0,0,0,0,0.457521
41,0.997569,0,79.55,-0,8.56402e-08,0,0,0,0,0,0,0.912486,-0.0117715,0,0.912562,31.82,0.147902,0.00457674,0.000583733,0,0.00461381,1.00477,0,0,0,0,0.45794
42,0.997553,0,79.5483,-0,8.56399e-08,0,0,0,0,0,0,0.908605,-0.0122654,0,0.908688,31.8193,0.146567,0.00458664,0.000582318,0,0.00462346,1.00477,0,0,0,0,0.458358
43,0.997536,0,79.5466,-0,8.56397e-08,0,0,0,0,0,0,0.904609,-0.0127716,0,0.904699,31.8187,0.145252,0.0045962,0.000580787,0,0.00463275,1.00476,0,0,0,0,0.458761
44,0.99752,0,79.545,-0,8.56394e-08,0,0,0,0,0,0,0.900496,-0.01329,0,0.900594,31.818,0.143959,0.00460571,0.000579177,0,0.00464199,1.00476,0,0,0,0,0.459163
45,0.997504,0,79.5434,-0,8.56392e-08,0,0,0,0,0,0,0.896265,-0.0138209,0,0.896371,31.8174,0.142691,0.00461506,0.00057747,0,0.00465105,1.00476,0,0,0,0,0.459558
46,0.997488,0,79.5419,-0,8.56389e-08,0,0,0,0,0,0,0.891912,-0.0143641,0,0.892028,31.8168,0.14145,0.00462423,0.000575665,0,0.00465992,1.00475,0,0,0,0,0.459944
47,0.997472,0,79.5404,-0,8.56387e-08,0,0,0,0,0,0,0.887437,-0.0149199,0,0.887562,31.8162,0.140239,0.00463334,0.000573779,0,0.00466873,1.00475,0,0,0,0,0.460329
48,0.997456,0,79.5389,-0,8.56385e-08,0,0,0,0,0,0,0.882836,-0.0154881,0,0.882972,31.8156,0.139059,0.00464222,0.000571785,0,0.0046773,1.00475,0,0,0,0,0.460703
49,0.997441,0,79.5375,-0,8.56383e-08,0,0,0,0,0,0,0.878108,-0.0160688,0,0.878255,31.815,0.137912,0.00465109,0.000569713,0,0.00468585,1.00474,0,0,0,0,0.461078
50,0.997427,0,79.5361,-0,8.56381e-08,0,0,0,0,0,0,0.873252,-0.016662,0,0.873411,31.8144,0.1368,0.00465974,0.000567536,0,0.00469417,1.00474,0,0,0,0,0.461443
51,0.997412,0,79.5347,-0,8.5638e-08,0,0,0,0,0,0,0.868265,-0.0172677,0,0.868437,31.8139,0.135725,0.00466836,0.000565276,0,0.00470245,1.00474,0,0,0,0,0.461807
52,0.997398,0,79.5334,-0,8.56378e-08,0,0,0,0,0,0,0.863146,-0.0178858,0,0.863331,31.8134,0.134688,0.00467683,0.000562918,0,0.00471058,1.00474,0,0,0,0,0.462164
53,0.997385,0,79.5322,-0,8.56377e-08,0,0,0,0,0,0,0.857893,-0.0185162,0,0.858092,31.8129,0.133691,0.00468521,0.000560469,0,0.00471861,1.00473,0,0,0,0,0.462518
54,0.997372,0,79.531,-0,8.56375e-08,0,0,0,0,0,0,0.852504,-0.0191588,0,0.852719,31.8124,0.132735,0.00469353,0.000557931,0,0.00472657,1.00473,0,0,0,0,0.46287
55,0.99736,0,79.5299,-0,8.56374e-08,0,0,0,0,0,0,0.846979,-0.0198135,0,0.847211,31.8119,0.131821,0.00470171,0.000555294,0,0.00473439,1.00473,0,0,0,0,0.463216
56,0.997348,0,79.5288,-0,8.56373e-08,0,0,0,0,0,0,0.841316,-0.0204802,0,0.841565,31.8115,0.130954,0.00470989,0.000552573,0,0.00474219,1.00473,0,0,0,0,0.463562
57,0.997336,0,79.5277,-0,8.56372e-08,0,0,0,0,0,0,0.835514,-0.0211586,0,0.835782,31.8111,0.130132,0.00471791,0.000549749,0,0.00474984,1.00473,0,0,0,0,0.463901
58,0.997325,0,79.5268,-0,8.56371e-08,0,0,0,0,0,0,0.829572,-0.0218486,0,0.82986,31.8107,0.129356,0.00472593,0.000546838,0,0.00475746,1.00472,0,0,0,0,0.464241
59,0.997315,0,79.5259,-0,8.5637e-08,0,0,0,0,0,0,0.82349,-0.0225499,0,0.823798,31.8103,0.128626,0.00473385,0.000543829,0,0.00476498,1.00472,0,0,0,0,0.464577
60,0.997306,0,79.525,-0,8.56369e-08,0,0,0,0,0,0,0.817266,-0.0232624,0,0.817597,31.81,0.127945,0.00474172,0.000540726,0,0.00477245,1.00472,0,0,0,0,0.46491
61,0.997297,0,79.5242,-0,8.56369e-08,0,0,0,0,0,0,0.8109,-0.0239856,0,0.811255,31.8097,0.127314,0.00474954,0.000537526,0,0.00477986,1.00472,0,0,0,0,0.465242
62,0.997288,0,79.5235,-0,8.56368e-08,0,0,0,0,0,0,0.804393,-0.0247193,0,0.804772,31.8094,0.126733,0.0047573,0.000534227,0,0.0047872,1.00472,0,0,0,0,0.465572
63,0.99728,0,79.5228,-0,8.56368e-08,0,0,0,0,0,0,0.797743,-0.0254631,0,0.798149,31.8091,0.126204,0.00476501,0.000530829,0,0.00479449,1.00472,0,0,0,0,0.4659
64,0.997273,0,79.5222,-0,8.56368e-08,0,0,0,0,0,0,0.790952,-0.0262166,0,0.791386,31.8089,0.125728,0.00477269,0.00052733,0,0.00480173,1.00472,0,0,0,0,0.466226
65,0.997267,0,79.5217,-0,8.56368e-08,0,0,0,0,0,0,0.784019,-0.0269795,0,0.784483,31.8087,0.125307,0.00478031,0.000523726,0,0.00480892,1.00472,0,0,0,0,0.466551
66,0.997261,0,79.5213,-0,8.56367e-08,0,0,0,0,0,0,0.776945,-0.0277512,0,0.77744,31.8085,0.124941,0.00478791,0.000520018,0,0.00481607,1.00472,0,0,0,0,0.466874
67,0.997257,0,79.5209,-0,8.56368e-08,0,0,0,0,0,0,0.769731,-0.0285313,0,0.770259,31.8083,0.124632,0.00479547,0.0005162,0,0.00482317,1.00472,0,0,0,0,0.467196
68,0.997252,0,79.5206,-0,8.56368e-08,0,0,0,0,0,0,0.762378,-0.0293192,0,0.762941,31.8082,0.124381,0.00480299,0.000512271,0,0.00483023,1.00472,0,0,0,0,0.467517
69,0.997249,0,79.5203,-0,8.56368e-08,0,0,0,0,0,0,0.754887,-0.0301145,0,0.755487,31.8081,0.12419,0.00481048,0.000508228,0,0.00483726,1.00472,0,0,0,0,0.467837
70,0.997246,0,79.5202,-0,8.56368e-08,0,0,0,0,0,0,0.747259,-0.0309165,0,0.747899,31.8081,0.124059,0.00481794,0.000504066,0,0.00484424,1.00472,0,0,0,0,0.468156
71,0.997244,0,79.5201,-0,8.56369e-08,0,0,0,0,0,0,0.739498,-0.0317246,0,0.740178,31.808,0.123991,0.00482538,0.000499781,0,0.00485119,1.00472,0,0,0,0,0.468474
72,0.997243,0,79.5201,-0,8.5637e-08,0,0,0,0,0,0,0.731603,-0.0325381,0,0.732326,31.808,0.123986,0.00483279,0.00049537,0,0.00485811,1.00472,0,0,0,0,0.468791
73,0.997243,0,79.5201,-0,8.56371e-08,0,0,0,0,0,0,0.723579,-0.0333563,0,0.724347,31.8081,0.124046,0.00484016,0.000490826,0,0.00486499,1.00472,0,0,0,0,0.469106
74,0.997243,0,79.5203,-0,8.56372e-08,0,0,0,0,0,0,0.715426,-0.0341785,0,0.716242,31.8081,0.124172,0.00484751,0.000486146,0,0.00487183,1.00473,0,0,0,0,0.469421
75,0.997245,0,79.5205,-0,8.56373e-08,0,0,0,0,0,0,0.707149,-0.035004,0,0.708015,31.8082,0.124365,0.00485484,0.000481324,0,0.00487864,1.00473,0,0,0,0,0.469734
76,0.997247,0,79.5209,-0,8.56374e-08,0,0,0,0,0,0,0.69875,-0.0358319,0,0.699668,31.8083,0.124628,0.00486214,0.000476353,0,0.00488542,1.00473,0,0,0,0,0.470047
77,0.99725,0,79.5213,-0,8.56375e-08,0,0,0,0,0,0,0.690232,-0.0366613,0,0.691205,31.8085,0.124962,0.00486942,0.000471228,0,0.00489217,1.00473,0,0,0,0,0.470359
78,0.997254,0,79.5218,-0,8.56377e-08,0,0,0,0,0,0,0.6816,-0.0374915,0,0.68263,31.8087,0.125369,0.00487669,0.000465942,0,0.00489889,1.00473,0,0,0,0,0.47067
79,0.997259,0,79.5224,-0,8.56379e-08,0,0,0,0,0,0,0.672857,-0.0383215,0,0.673947,31.809,0.125851,0.00488392,0.000460487,0,0.00490558,1.00474,0,0,0,0,0.470981
80,0.997264,0,79.5231,-0,8.56381e-08,0,0,0,0,0,0,0.664007,-0.0391503,0,0.66516,31.8092,0.12641,0.00489113,0.000454856,0,0.00491224,1.00474,0,0,0,0,0.47129
81,0.997271,0,79.5239,-0,8.56383e-08,0,0,0,0,0,0,0.655054,-0.0399771,0,0.656273,31.8096,0.12705,0.00489831,0.00044904,0,0.00491885,1.00474,0,0,0,0,0.471597
82,0.997278,0,79.5248,-0,8.56386e-08,0,0,0,0,0,0,0.646003,-0.0408007,0,0.64729,31.8099,0.127772,0.00490545,0.000443032,0,0.00492541,1.00475,0,0,0,0,0.471903
83,0.997287,0,79.5258,-0,8.56388e-08,0,0,0,0,0,0,0.63686,-0.0416203,0,0.638218,31.8103,0.128579,0.00491256,0.000436822,0,0.00493194,1.00475,0,0,0,0,0.472208
84,0.997297,0,79.5269,-0,8.56391e-08,0,0,0,0,0,0,0.627628,-0.0424346,0,0.629061,31.8108,0.129474,0.00491965,0.000430403,0,0.00493844,1.00476,0,0,0,0,0.472512
85,0.997307,0,79.5282,-0,8.56395e-08,0,0,0,0,0,0,0.618314,-0.0432427,0,0.619824,31.8113,0.13046,0.0049267,0.000423764,0,0.0049449,1.00476,0,0,0,0,0.472814
86,0.997319,0,79.5295,-0,8.56398e-08,0,0,0,0,0,0,0.608923,-0.0440435,0,0.610514,31.8118,0.131541,0.00493372,0.000416895,0,0.0049513,1.00477,0,0,0,0,0.473115
87,0.997332,0,79.531,-0,8.56402e-08,0,0,0,0,0,0,0.599461,-0.0448359,0,0.601135,31.8124,0.13272,0.00494067,0.000409787,0,0.00495764,1.00477,0,0,0,0,0.473412
88,0.997346,0,79.5326,-0,8.56406e-08,0,0,0,0,0,0,0.589933,-0.0456186,0,0.591694,31.813,0.134001,0.00494757,0.000402428,0,0.00496391,1.00478,0,0,0,0,0.473708
89,0.997361,0,79.5343,-0,8.5641e-08,0,0,0,0,0,0,0.580346,-0.0463906,0,0.582197,31.8137,0.135388,0.00495441,0.000394809,0,0.00497012,1.00478,0,0,0,0,0.474
90,0.997378,0,79.5362,-0,8.56415e-08,0,0,0,0,0,0,0.570705,-0.0471508,0,0.57265,31.8145,0.136884,0.0049612,0.000386921,0,0.00497626,1.00479,0,0,0,0,0.47429
91,0.997396,0,79.5382,-0,8.5642e-08,0,0,0,0,0,0,0.561019,-0.0478979,0,0.56306,31.8153,0.138495,0.00496791,0.00037875,0,0.00498232,1.0048,0,0,0,0,0.474577
92,0.997415,0,79.5404,-0,8.56425e-08,0,0,0,0,0,0,0.551292,-0.0486309,0,0.553432,31.8161,0.140223,0.00497451,0.000370287,0,0.00498827,1.00481,0,0,0,0,0.474859
93,0.997435,0,79.5427,-0,8.56431e-08,0,0,0,0,0,0,0.541531,-0.0493485,0,0.543775,31.8171,0.142075,0.00498101,0.00036152,0,0.00499411,1.00481,0,0,0,0,0.475136
94,0.997457,0,79.5452,-0,8.56437e-08,0,0,0,0,0,0,0.531744,-0.0500497,0,0.534094,31.8181,0.144054,0.0049874,0.000352439,0,0.00499984,1.00482,0,0,0,0,0.475408
95,0.997481,0,79.5478,-0,8.56443e-08,0,0,0,0,0,0,0.521937,-0.0507332,0,0.524397,31.8191,0.146167,0.00499366,0.000343034,0,0.00500543,1.00483,0,0,0,0,0.475675
96,0.997506,0,79.5506,-0,8.5645e-08,0,0,0,0,0,0,0.512117,-0.0513979,0,0.514689,31.8202,0.148416,0.00499975,0.000333293,0,0.00501085,1.00484,0,0,0,0,0.475934
97,0.997532,0,79.5536,-0,8.56457e-08,0,0,0,0,0,0,0.50229,-0.0520429,0,0.504979,31.8214,0.150809,0.00500567,0.000323206,0,0.00501609,1.00486,0,0,0,0,0.476185
98,0.99756,0,79.5568,-0,8.56465e-08,0,0,0,0,0,0,0.492465,-0.0526668,0,0.495273,31.8227,0.15335,0.00501139,0.000312765,0,0.00502114,1.00487,0,0,0,0,0.476427
99,0.99759,0,79.5601,-0,8.56473e-08,0,0,0,0,0,0,0.482647,-0.0532688,0,0.485577,31.8241,0.156044,0.00501689,0.000301958,0,0.00502597,1.00488,0,0,0,0,0.47666
100,0.997622,0,79.5637,-0,8.56482e-08,0,0,0,0,0,0,0.472843,-0.0538478,0,0.4759,31.8255,0.158897,0.00502212,0.000290776,0,0.00503053,1.00489,0,0,0,0,0.47688
101,0.997655,0,79.5675,-0,8.56491e-08,0,0,0,0,0,0,0.463061,-0.0544028,0,0.466246,31.827,0.161916,0.00502706,0.000279212,0,0.00503481,1.00491,0,0,0,0,0.477088
102,0.997691,0,79.5715,-0,8.56501e-08,0,0,0,0,0,0,0.453308,-0.0549329,0,0.456624,31.8286,0.165104,0.00503169,0.000267257,0,0.00503878,1.00492,0,0,0,0,0.477282
103,0.997728,0,79.5757,-0,8.56511e-08,0,0,0,0,0,0,0.443589,-0.0554371,0,0.44704,31.8303,0.168467,0.00503594,0.000254903,0,0.00504239,1.00494,0,0,0,0,0.47746
104,0.997767,0,79.5801,-0,8.56522e-08,0,0,0,0,0,0,0.433912,-0.0559146,0,0.4375,31.832,0.172011,0.0050398,0.000242146,0,0.00504562,1.00495,0,0,0,0,0.47762
105,0.997808,0,79.5848,-0,8.56534e-08,0,0,0,0,0,0,0.424283,-0.0563647,0,0.428011,31.8339,0.175739,0.00504322,0.000228979,0,0.00504842,1.00497,0,0,0,0,0.47776
106,0.997851,0,79.5897,-0,8.56546e-08,0,0,0,0,0,0,0.414709,-0.0567865,0,0.418579,31.8359,0.179658,0.00504615,0.000215398,0,0.00505075,1.00499,0,0,0,0,0.477879
107,0.997896,0,79.5948,-0,8.56559e-08,0,0,0,0,0,0,0.405195,-0.0571794,0,0.40921,31.8379,0.18377,0.00504855,0.000201399,0,0.00505257,1.00501,0,0,0,0,0.477975
108,0.997944,0,79.6002,-0,8.56572e-08,0,0,0,0,0,0,0.395749,-0.0575429,0,0.39991,31.8401,0.188079,0.00505038,0.000186982,0,0.00505384,1.00503,0,0,0,0,0.478045
109,0.997993,0,79.6058,-0,8.56586e-08,0,0,0,0,0,0,0.386375,-0.0578762,0,0.390686,31.8423,0.192585,0.00505157,0.000172144,0,0.00505451,1.00505,0,0,0,0,0.478088
110,0.998045,0,79.6117,-0,8.56601e-08,0,0,0,0,0,0,0.37708,-0.058179,0,0.381542,31.8447,0.19729,0.00505209,0.000156886,0,0.00505453,1.00507,0,0,0,0,0.4781
111,0.998099,0,79.6178,-0,8.56616e-08,0,0,0,0,0,0,0.367869,-0.0584509,0,0.372483,31.8471,0.20219,0.00505189,0.00014121,0,0.00505386,1.0051,0,0,0,0,0.478081
112,0.998154,0,79.6242,-0,8.56632e-08,0,0,0,0,0,0,0.358747,-0.0586915,0,0.363516,31.8497,0.207283,0.0050509,0.00012512,0,0.00505245,1.00512,0,0,0,0,0.478028
113,0.998212,0,79.6308,-0,8.56649e-08,0,0,0,0,0,0,0.34972,-0.0589005,0,0.354645,31.8523,0.212564,0.00504908,0.00010862,0,0.00505025,1.00514,0,0,0,0,0.477938
114,0.998272,0,79.6376,-0,8.56666e-08,0,0,0,0,0,0,0.340792,-0.0590777,0,0.345875,31.855,0.218026,0.00504638,9.17149e-05,0,0.00504721,1.00517,0,0,0,0,0.477809
115,0.998333,0,79.6447,-0,8.56685e-08,0,0,0,0,0,0,0.331968,-0.0592231,0,0.33721,31.8579,0.223664,0.00504274,7.44138e-05,0,0.00504329,1.0052,0,0,0,0,0.477639
116,0.998396,0,79.6519,-0,8.56703e-08,0,0,0,0,0,0,0.323253,-0.0593366,0,0.328654,31.8608,0.229468,0.00503813,5.67258e-05,0,0.00503845,1.00523,0,0,0,0,0.477426
117,0.99846,0,79.6594,-0,8.56723e-08,0,0,0,0,0,0,0.31465,-0.0594181,0,0.320211,31.8638,0.235443,0.0050325,3.86616e-05,0,0.00503265,1.00526,0,0,0,0,0.477168
118,0.998527,0,79.6671,-0,8.56743e-08,0,0,0,0,0,0,0.306164,-0.0594678,0,0.311885,31.8668,0.241603,0.00502582,2.02329e-05,0,0.00502586,1.00529,0,0,0,0,0.476864
119,0.998595,0,79.675,-0,8.56764e-08,0,0,0,0,0,0,0.297797,-0.059486,0,0.30368,31.87,0.247976,0.00501808,1.45117e-06,0,0.00501808,1.00532,0,0,0,0,0.476513
120,0.998665,0,79.6833,-0,8.56786e-08,0,0,0,0,0,0,0.289554,-0.0594727,0,0.295599,31.8733,0.254602,0.0050092,-1.76676e-05,0,0.00500924,1.00535,0,0,0,0,0.476112
121,0.998739,0,79.692,-0,8.56809e-08,0,0,0,0,0,0,0.281437,-0.0594283,0,0.287643,31.8768,0.261522,0.00499917,-3.7107e-05,0,0.00499931,1.00539,0,0,0,0,0.475661
122,0.998817,0,79.701,-0,8.56833e-08,0,0,0,0,0,0,0.27345,-0.0593531,0,0.279817,31.8804,0.268778,0.00498788,-5.6851e-05,0,0.00498821,1.00542,0,0,0,0,0.475154
123,0.998899,0,79.7106,-0,8.56857e-08,0,0,0,0,0,0,0.265595,-0.0592477,0,0.272123,31.8842,0.276399,0.00497527,-7.68802e-05,0,0.00497586,1.00546,0,0,0,0,0.474589
124,0.998986,0,79.7206,-0,8.56883e-08,0,0,0,0,0,0,0.257873,-0.0591124,0,0.264562,31.8882,0.284399,0.00496123,-9.71739e-05,0,0.00496218,1.0055,0,0,0,0,0.47396
